# LRIS RG850 filter * LRIS CCD QE.  Set == 0 at 10500A due to lack of data there 
#      WAVELENGTH      THROUGHPUT
#       angstroms                
7999.73    0.000 
8000.99    0.000 
8002.25    0.000 
8003.52    0.000 
8004.78    0.000 
8006.04    0.000 
8007.30    0.000 
8008.56    0.000 
8009.83    0.000 
8011.09    0.000 
8012.35    0.000 
8013.61    0.000 
8014.87    0.000 
8016.14    0.000 
8017.40    0.000 
8018.66    0.000 
8019.92    0.000 
8021.19    0.000 
8022.45    0.000 
8023.71    0.000 
8024.97    0.000 
8026.23    0.000 
8027.50    0.000 
8028.76    0.000 
8030.02    0.000 
8031.28    0.000 
8032.54    0.000 
8033.81    0.000 
8035.07    0.000 
8036.33    0.000 
8037.59    0.000 
8038.85    0.000 
8040.12    0.000 
8041.38    0.000 
8042.64    0.000 
8043.90    0.000 
8045.17    0.000 
8046.43    0.000 
8047.69    0.000 
8048.95    0.000 
8050.21    0.000 
8051.48    0.000 
8052.74    0.000 
8054.00    0.000 
8055.26    0.000 
8056.52    0.000 
8057.79    0.000 
8059.05    0.000 
8060.31    0.000 
8061.57    0.000 
8062.83    0.000 
8064.10    0.000 
8065.36    0.000 
8066.62    0.000 
8067.88    0.000 
8069.15    0.000 
8070.41    0.000 
8071.67    0.000 
8072.93    0.000 
8074.19    0.000 
8075.46    0.000 
8076.72    0.000 
8077.98    0.000 
8079.24    0.001 
8080.50    0.000 
8081.77    0.001 
8083.03    0.000 
8084.29    0.001 
8085.55    0.001 
8086.81    0.001 
8088.08    0.001 
8089.34    0.001 
8090.60    0.001 
8091.86    0.001 
8093.12    0.001 
8094.39    0.001 
8095.65    0.001 
8096.91    0.001 
8098.17    0.001 
8099.44    0.001 
8100.70    0.001 
8101.96    0.001 
8103.22    0.001 
8104.48    0.001 
8105.75    0.001 
8107.01    0.001 
8108.27    0.001 
8109.53    0.001 
8110.79    0.001 
8112.06    0.001 
8113.32    0.001 
8114.58    0.001 
8115.84    0.001 
8117.10    0.001 
8118.37    0.001 
8119.63    0.001 
8120.89    0.001 
8122.15    0.001 
8123.42    0.001 
8124.68    0.001 
8125.94    0.001 
8127.20    0.001 
8128.46    0.001 
8129.73    0.001 
8130.99    0.001 
8132.25    0.001 
8133.51    0.001 
8134.77    0.001 
8136.04    0.001 
8137.30    0.001 
8138.56    0.001 
8139.82    0.001 
8141.08    0.001 
8142.35    0.001 
8143.61    0.001 
8144.87    0.001 
8146.13    0.001 
8147.40    0.001 
8148.66    0.001 
8149.92    0.001 
8151.18    0.001 
8152.44    0.001 
8153.71    0.001 
8154.97    0.001 
8156.23    0.001 
8157.49    0.001 
8158.75    0.001 
8160.02    0.001 
8161.28    0.001 
8162.54    0.001 
8163.80    0.001 
8165.06    0.001 
8166.33    0.001 
8167.59    0.001 
8168.85    0.001 
8170.11    0.001 
8171.38    0.001 
8172.64    0.001 
8173.90    0.001 
8175.16    0.001 
8176.42    0.001 
8177.69    0.001 
8178.95    0.001 
8180.21    0.001 
8181.47    0.001 
8182.73    0.001 
8184.00    0.001 
8185.26    0.001 
8186.52    0.001 
8187.78    0.001 
8189.04    0.001 
8190.31    0.001 
8191.57    0.001 
8192.83    0.001 
8194.09    0.001 
8195.36    0.001 
8196.62    0.002 
8197.88    0.002 
8199.14    0.002 
8200.40    0.002 
8201.67    0.002 
8202.93    0.002 
8204.19    0.002 
8205.45    0.002 
8206.71    0.002 
8207.98    0.002 
8209.24    0.002 
8210.50    0.002 
8211.76    0.002 
8213.02    0.002 
8214.29    0.002 
8215.55    0.002 
8216.81    0.002 
8218.07    0.002 
8219.33    0.002 
8220.60    0.002 
8221.86    0.003 
8223.12    0.003 
8224.38    0.003 
8225.65    0.003 
8226.91    0.003 
8228.17    0.003 
8229.43    0.003 
8230.69    0.003 
8231.96    0.003 
8233.22    0.003 
8234.48    0.003 
8235.74    0.004 
8237.00    0.004 
8238.27    0.004 
8239.53    0.004 
8240.79    0.004 
8242.05    0.004 
8243.31    0.004 
8244.58    0.004 
8245.84    0.005 
8247.10    0.005 
8248.36    0.005 
8249.63    0.005 
8250.89    0.005 
8252.15    0.005 
8253.41    0.005 
8254.67    0.006 
8255.94    0.006 
8257.20    0.006 
8258.46    0.006 
8259.72    0.006 
8260.98    0.007 
8262.25    0.007 
8263.51    0.007 
8264.77    0.007 
8266.03    0.008 
8267.29    0.008 
8268.56    0.008 
8269.82    0.008 
8271.08    0.009 
8272.34    0.009 
8273.61    0.009 
8274.87    0.010 
8276.13    0.010 
8277.39    0.010 
8278.65    0.011 
8279.92    0.011 
8281.18    0.011 
8282.44    0.012 
8283.70    0.012 
8284.96    0.012 
8286.23    0.013 
8287.49    0.013 
8288.75    0.013 
8290.01    0.014 
8291.27    0.014 
8292.54    0.015 
8293.80    0.015 
8295.06    0.016 
8296.32    0.016 
8297.59    0.017 
8298.85    0.017 
8300.11    0.018 
8301.37    0.018 
8302.63    0.019 
8303.90    0.019 
8305.16    0.020 
8306.42    0.020 
8307.68    0.021 
8308.94    0.022 
8310.21    0.022 
8311.47    0.023 
8312.73    0.024 
8313.99    0.024 
8315.25    0.025 
8316.52    0.026 
8317.78    0.026 
8319.04    0.027 
8320.30    0.028 
8321.57    0.029 
8322.83    0.029 
8324.09    0.030 
8325.35    0.031 
8326.61    0.032 
8327.88    0.033 
8329.14    0.034 
8330.40    0.034 
8331.66    0.035 
8332.92    0.036 
8334.19    0.037 
8335.45    0.038 
8336.71    0.039 
8337.97    0.040 
8339.23    0.041 
8340.50    0.042 
8341.76    0.043 
8343.02    0.044 
8344.28    0.045 
8345.54    0.046 
8346.81    0.047 
8348.07    0.048 
8349.33    0.049 
8350.59    0.051 
8351.86    0.052 
8353.12    0.053 
8354.38    0.054 
8355.64    0.055 
8356.90    0.056 
8358.17    0.058 
8359.43    0.059 
8360.69    0.060 
8361.95    0.061 
8363.21    0.063 
8364.48    0.064 
8365.74    0.065 
8367.00    0.067 
8368.26    0.068 
8369.52    0.069 
8370.79    0.071 
8372.05    0.072 
8373.31    0.073 
8374.57    0.075 
8375.84    0.076 
8377.10    0.078 
8378.36    0.079 
8379.62    0.081 
8380.88    0.082 
8382.15    0.084 
8383.41    0.085 
8384.67    0.087 
8385.93    0.088 
8387.19    0.090 
8388.46    0.091 
8389.72    0.093 
8390.98    0.094 
8392.24    0.096 
8393.50    0.098 
8394.77    0.099 
8396.03    0.101 
8397.29    0.103 
8398.55    0.104 
8399.82    0.106 
8401.08    0.107 
8402.34    0.109 
8403.60    0.110 
8404.86    0.112 
8406.13    0.114 
8407.39    0.116 
8408.65    0.117 
8409.91    0.119 
8411.17    0.121 
8412.44    0.123 
8413.70    0.124 
8414.96    0.126 
8416.22    0.128 
8417.48    0.129 
8418.75    0.131 
8420.01    0.133 
8421.27    0.135 
8422.53    0.136 
8423.80    0.138 
8425.06    0.140 
8426.32    0.142 
8427.58    0.143 
8428.84    0.145 
8430.11    0.147 
8431.37    0.149 
8432.63    0.150 
8433.89    0.152 
8435.15    0.154 
8436.42    0.156 
8437.68    0.157 
8438.94    0.159 
8440.20    0.161 
8441.46    0.163 
8442.73    0.164 
8443.99    0.166 
8445.25    0.168 
8446.51    0.170 
8447.78    0.172 
8449.04    0.173 
8450.30    0.175 
8451.56    0.177 
8452.82    0.178 
8454.09    0.180 
8455.35    0.182 
8456.61    0.184 
8457.87    0.185 
8459.13    0.187 
8460.40    0.189 
8461.66    0.190 
8462.92    0.192 
8464.18    0.193 
8465.44    0.195 
8466.71    0.197 
8467.97    0.198 
8469.23    0.200 
8470.49    0.202 
8471.75    0.204 
8473.02    0.205 
8474.28    0.207 
8475.54    0.208 
8476.80    0.210 
8478.07    0.212 
8479.33    0.213 
8480.59    0.215 
8481.85    0.216 
8483.11    0.218 
8484.38    0.220 
8485.64    0.222 
8486.90    0.223 
8488.16    0.225 
8489.42    0.226 
8490.69    0.228 
8491.95    0.230 
8493.21    0.231 
8494.47    0.232 
8495.73    0.234 
8497.00    0.236 
8498.26    0.237 
8499.52    0.239 
8500.78    0.240 
8502.05    0.241 
8503.31    0.243 
8504.57    0.245 
8505.83    0.246 
8507.09    0.247 
8508.36    0.249 
8509.62    0.251 
8510.88    0.252 
8512.14    0.253 
8513.40    0.255 
8514.67    0.256 
8515.93    0.258 
8517.19    0.259 
8518.45    0.260 
8519.71    0.262 
8520.98    0.263 
8522.24    0.264 
8523.50    0.266 
8524.76    0.267 
8526.03    0.268 
8527.29    0.270 
8528.55    0.271 
8529.81    0.273 
8531.07    0.274 
8532.34    0.275 
8533.60    0.276 
8534.86    0.277 
8536.12    0.279 
8537.38    0.280 
8538.65    0.281 
8539.91    0.282 
8541.17    0.284 
8542.43    0.285 
8543.69    0.286 
8544.96    0.287 
8546.22    0.289 
8547.48    0.290 
8548.74    0.291 
8550.01    0.292 
8551.27    0.293 
8552.53    0.294 
8553.79    0.296 
8555.05    0.297 
8556.32    0.298 
8557.58    0.299 
8558.84    0.299 
8560.10    0.301 
8561.36    0.302 
8562.63    0.303 
8563.89    0.304 
8565.15    0.305 
8566.41    0.306 
8567.67    0.307 
8568.94    0.308 
8570.20    0.309 
8571.46    0.310 
8572.72    0.311 
8573.99    0.312 
8575.25    0.313 
8576.51    0.314 
8577.77    0.315 
8579.03    0.316 
8580.30    0.317 
8581.56    0.318 
8582.82    0.318 
8584.08    0.320 
8585.34    0.321 
8586.61    0.321 
8587.87    0.322 
8589.13    0.323 
8590.39    0.324 
8591.65    0.325 
8592.92    0.326 
8594.18    0.326 
8595.44    0.327 
8596.70    0.328 
8597.96    0.329 
8599.23    0.330 
8600.49    0.331 
8601.75    0.331 
8603.01    0.332 
8604.28    0.333 
8605.54    0.333 
8606.80    0.334 
8608.06    0.335 
8609.32    0.336 
8610.59    0.336 
8611.85    0.337 
8613.11    0.338 
8614.37    0.339 
8615.63    0.339 
8616.90    0.340 
8618.16    0.340 
8619.42    0.341 
8620.68    0.342 
8621.94    0.343 
8623.21    0.343 
8624.47    0.344 
8625.73    0.345 
8626.99    0.345 
8628.26    0.346 
8629.52    0.346 
8630.78    0.347 
8632.04    0.348 
8633.30    0.349 
8634.57    0.349 
8635.83    0.350 
8637.09    0.350 
8638.35    0.351 
8639.61    0.351 
8640.88    0.352 
8642.14    0.352 
8643.40    0.353 
8644.66    0.353 
8645.92    0.354 
8647.19    0.355 
8648.45    0.355 
8649.71    0.355 
8650.97    0.356 
8652.24    0.356 
8653.50    0.357 
8654.76    0.358 
8656.02    0.358 
8657.28    0.359 
8658.55    0.359 
8659.81    0.360 
8661.07    0.360 
8662.33    0.360 
8663.59    0.361 
8664.86    0.361 
8666.12    0.362 
8667.38    0.362 
8668.64    0.363 
8669.90    0.363 
8671.17    0.363 
8672.43    0.364 
8673.69    0.364 
8674.95    0.365 
8676.22    0.365 
8677.48    0.366 
8678.74    0.366 
8680.00    0.366 
8681.26    0.367 
8682.53    0.367 
8683.79    0.367 
8685.05    0.368 
8686.31    0.368 
8687.57    0.369 
8688.84    0.369 
8690.10    0.369 
8691.36    0.370 
8692.62    0.370 
8693.88    0.370 
8695.15    0.370 
8696.41    0.370 
8697.67    0.371 
8698.93    0.371 
8700.20    0.372 
8701.46    0.372 
8702.72    0.373 
8703.98    0.373 
8705.24    0.373 
8706.51    0.373 
8707.77    0.374 
8709.03    0.374 
8710.29    0.374 
8711.55    0.375 
8712.82    0.375 
8714.08    0.375 
8715.34    0.375 
8716.60    0.375 
8717.86    0.376 
8719.13    0.376 
8720.39    0.376 
8721.65    0.376 
8722.91    0.376 
8724.17    0.376 
8725.44    0.377 
8726.70    0.377 
8727.96    0.377 
8729.22    0.378 
8730.49    0.378 
8731.75    0.378 
8733.01    0.378 
8734.27    0.378 
8735.53    0.378 
8736.80    0.379 
8738.06    0.379 
8739.32    0.379 
8740.58    0.379 
8741.84    0.380 
8743.11    0.380 
8744.37    0.380 
8745.63    0.380 
8746.89    0.380 
8748.15    0.381 
8749.42    0.380 
8750.68    0.381 
8751.94    0.381 
8753.20    0.381 
8754.47    0.381 
8755.73    0.381 
8756.99    0.382 
8758.25    0.382 
8759.51    0.382 
8760.78    0.382 
8762.04    0.382 
8763.30    0.382 
8764.56    0.382 
8765.82    0.382 
8767.09    0.382 
8768.35    0.382 
8769.61    0.383 
8770.87    0.383 
8772.13    0.383 
8773.40    0.383 
8774.66    0.383 
8775.92    0.383 
8777.18    0.383 
8778.45    0.383 
8779.71    0.383 
8780.97    0.383 
8782.23    0.383 
8783.49    0.383 
8784.76    0.384 
8786.02    0.384 
8787.28    0.384 
8788.54    0.384 
8789.80    0.384 
8791.07    0.384 
8792.33    0.384 
8793.59    0.384 
8794.85    0.384 
8796.11    0.384 
8797.38    0.384 
8798.64    0.384 
8799.90    0.385 
8801.16    0.385 
8802.43    0.384 
8803.69    0.384 
8804.95    0.385 
8806.21    0.385 
8807.47    0.385 
8808.74    0.385 
8810.00    0.385 
8811.26    0.385 
8812.52    0.385 
8813.78    0.385 
8815.05    0.385 
8816.31    0.385 
8817.57    0.385 
8818.83    0.385 
8820.09    0.385 
8821.36    0.385 
8822.62    0.385 
8823.88    0.385 
8825.14    0.385 
8826.41    0.385 
8827.67    0.385 
8828.93    0.385 
8830.19    0.385 
8831.45    0.385 
8832.72    0.385 
8833.98    0.385 
8835.24    0.385 
8836.50    0.385 
8837.76    0.385 
8839.03    0.385 
8840.29    0.385 
8841.55    0.385 
8842.81    0.385 
8844.07    0.385 
8845.34    0.385 
8846.60    0.385 
8847.86    0.385 
8849.12    0.385 
8850.38    0.385 
8851.65    0.385 
8852.91    0.385 
8854.17    0.385 
8855.43    0.385 
8856.70    0.385 
8857.96    0.384 
8859.22    0.385 
8860.48    0.385 
8861.74    0.385 
8863.01    0.384 
8864.27    0.384 
8865.53    0.384 
8866.79    0.384 
8868.05    0.385 
8869.32    0.385 
8870.58    0.384 
8871.84    0.384 
8873.10    0.384 
8874.36    0.384 
8875.63    0.384 
8876.89    0.384 
8878.15    0.384 
8879.41    0.384 
8880.68    0.384 
8881.94    0.384 
8883.20    0.384 
8884.46    0.383 
8885.72    0.384 
8886.99    0.384 
8888.25    0.383 
8889.51    0.383 
8890.77    0.383 
8892.03    0.384 
8893.30    0.383 
8894.56    0.383 
8895.82    0.383 
8897.08    0.383 
8898.34    0.383 
8899.61    0.383 
8900.87    0.382 
8902.13    0.382 
8903.39    0.383 
8904.66    0.382 
8905.92    0.383 
8907.18    0.383 
8908.44    0.382 
8909.70    0.382 
8910.97    0.382 
8912.23    0.382 
8913.49    0.382 
8914.75    0.382 
8916.01    0.382 
8917.28    0.382 
8918.54    0.382 
8919.80    0.382 
8921.06    0.381 
8922.32    0.381 
8923.59    0.381 
8924.85    0.381 
8926.11    0.381 
8927.37    0.381 
8928.64    0.381 
8929.90    0.382 
8931.16    0.381 
8932.42    0.381 
8933.68    0.380 
8934.95    0.380 
8936.21    0.381 
8937.47    0.380 
8938.73    0.380 
8939.99    0.380 
8941.26    0.380 
8942.52    0.380 
8943.78    0.380 
8945.04    0.380 
8946.30    0.380 
8947.57    0.380 
8948.83    0.380 
8950.09    0.379 
8951.35    0.379 
8952.62    0.379 
8953.88    0.379 
8955.14    0.379 
8956.40    0.379 
8957.66    0.379 
8958.93    0.379 
8960.19    0.378 
8961.45    0.378 
8962.71    0.378 
8963.97    0.378 
8965.24    0.378 
8966.50    0.378 
8967.76    0.377 
8969.02    0.377 
8970.28    0.377 
8971.55    0.377 
8972.81    0.377 
8974.07    0.377 
8975.33    0.377 
8976.59    0.377 
8977.86    0.376 
8979.12    0.376 
8980.38    0.376 
8981.64    0.376 
8982.91    0.377 
8984.17    0.377 
8985.43    0.376 
8986.69    0.376 
8987.95    0.376 
8989.22    0.376 
8990.48    0.376 
8991.74    0.375 
8993.00    0.375 
8994.26    0.375 
8995.53    0.375 
8996.79    0.375 
8998.05    0.374 
8999.31    0.374 
9000.57    0.375 
9001.84    0.374 
9003.10    0.374 
9004.36    0.373 
9005.62    0.373 
9006.89    0.373 
9008.15    0.373 
9009.41    0.373 
9010.67    0.373 
9011.93    0.372 
9013.20    0.372 
9014.46    0.372 
9015.72    0.372 
9016.98    0.371 
9018.24    0.371 
9019.51    0.371 
9020.77    0.371 
9022.03    0.370 
9023.29    0.370 
9024.55    0.370 
9025.82    0.369 
9027.08    0.369 
9028.34    0.369 
9029.60    0.369 
9030.87    0.369 
9032.13    0.369 
9033.39    0.368 
9034.65    0.368 
9035.91    0.368 
9037.18    0.368 
9038.44    0.367 
9039.70    0.367 
9040.96    0.366 
9042.22    0.367 
9043.49    0.367 
9044.75    0.366 
9046.01    0.366 
9047.27    0.366 
9048.53    0.365 
9049.80    0.365 
9051.06    0.365 
9052.32    0.365 
9053.58    0.364 
9054.85    0.364 
9056.11    0.364 
9057.37    0.364 
9058.63    0.364 
9059.89    0.364 
9061.16    0.363 
9062.42    0.363 
9063.68    0.363 
9064.94    0.362 
9066.20    0.362 
9067.47    0.362 
9068.73    0.362 
9069.99    0.361 
9071.25    0.361 
9072.51    0.361 
9073.78    0.360 
9075.04    0.360 
9076.30    0.360 
9077.56    0.360 
9078.83    0.360 
9080.09    0.359 
9081.35    0.358 
9082.61    0.358 
9083.87    0.359 
9085.14    0.358 
9086.40    0.358 
9087.66    0.358 
9088.92    0.358 
9090.18    0.358 
9091.45    0.357 
9092.71    0.356 
9093.97    0.356 
9095.23    0.357 
9096.49    0.356 
9097.76    0.356 
9099.02    0.356 
9100.28    0.355 
9101.54    0.355 
9102.80    0.355 
9104.07    0.354 
9105.33    0.354 
9106.59    0.354 
9107.85    0.354 
9109.12    0.353 
9110.38    0.353 
9111.64    0.353 
9112.90    0.353 
9114.16    0.352 
9115.43    0.352 
9116.69    0.352 
9117.95    0.352 
9119.21    0.351 
9120.47    0.351 
9121.74    0.351 
9123.00    0.351 
9124.26    0.351 
9125.52    0.350 
9126.78    0.349 
9128.05    0.350 
9129.31    0.349 
9130.57    0.349 
9131.83    0.349 
9133.10    0.348 
9134.36    0.348 
9135.62    0.348 
9136.88    0.348 
9138.14    0.348 
9139.41    0.347 
9140.67    0.347 
9141.93    0.346 
9143.19    0.347 
9144.45    0.347 
9145.72    0.346 
9146.98    0.346 
9148.24    0.345 
9149.50    0.345 
9150.76    0.345 
9152.03    0.345 
9153.29    0.344 
9154.55    0.344 
9155.81    0.344 
9157.08    0.344 
9158.34    0.344 
9159.60    0.344 
9160.86    0.343 
9162.12    0.343 
9163.39    0.342 
9164.65    0.342 
9165.91    0.342 
9167.17    0.341 
9168.43    0.341 
9169.70    0.341 
9170.96    0.341 
9172.22    0.340 
9173.48    0.340 
9174.74    0.340 
9176.01    0.340 
9177.27    0.339 
9178.53    0.339 
9179.79    0.339 
9181.06    0.338 
9182.32    0.338 
9183.58    0.338 
9184.84    0.338 
9186.10    0.338 
9187.37    0.338 
9188.63    0.337 
9189.89    0.337 
9191.15    0.337 
9192.41    0.336 
9193.68    0.336 
9194.94    0.336 
9196.20    0.336 
9197.46    0.335 
9198.72    0.335 
9199.99    0.335 
9201.25    0.334 
9202.51    0.334 
9203.77    0.334 
9205.03    0.334 
9206.30    0.334 
9207.56    0.333 
9208.82    0.333 
9210.08    0.333 
9211.35    0.332 
9212.61    0.332 
9213.87    0.332 
9215.13    0.332 
9216.39    0.331 
9217.66    0.331 
9218.92    0.330 
9220.18    0.331 
9221.44    0.331 
9222.70    0.330 
9223.97    0.329 
9225.23    0.329 
9226.49    0.329 
9227.75    0.329 
9229.01    0.328 
9230.28    0.328 
9231.54    0.328 
9232.80    0.328 
9234.06    0.327 
9235.33    0.327 
9236.59    0.327 
9237.85    0.327 
9239.11    0.326 
9240.37    0.326 
9241.64    0.326 
9242.90    0.325 
9244.16    0.325 
9245.42    0.325 
9246.68    0.325 
9247.95    0.325 
9249.21    0.324 
9250.47    0.324 
9251.73    0.323 
9252.99    0.323 
9254.26    0.323 
9255.52    0.322 
9256.78    0.323 
9258.04    0.323 
9259.31    0.322 
9260.57    0.322 
9261.83    0.322 
9263.09    0.321 
9264.35    0.321 
9265.62    0.321 
9266.88    0.321 
9268.14    0.320 
9269.40    0.320 
9270.66    0.320 
9271.93    0.320 
9273.19    0.319 
9274.45    0.319 
9275.71    0.318 
9276.97    0.319 
9278.24    0.318 
9279.50    0.317 
9280.76    0.318 
9282.02    0.317 
9283.29    0.317 
9284.55    0.317 
9285.81    0.317 
9287.07    0.316 
9288.33    0.316 
9289.60    0.316 
9290.86    0.315 
9292.12    0.316 
9293.38    0.315 
9294.64    0.314 
9295.91    0.314 
9297.17    0.314 
9298.43    0.314 
9299.69    0.314 
9300.95    0.313 
9302.22    0.314 
9303.48    0.313 
9304.74    0.313 
9306.00    0.312 
9307.27    0.312 
9308.53    0.312 
9309.79    0.312 
9311.05    0.311 
9312.31    0.311 
9313.58    0.310 
9314.84    0.310 
9316.10    0.311 
9317.36    0.310 
9318.62    0.310 
9319.89    0.309 
9321.15    0.309 
9322.41    0.309 
9323.67    0.309 
9324.93    0.308 
9326.20    0.308 
9327.46    0.307 
9328.72    0.307 
9329.98    0.307 
9331.24    0.307 
9332.51    0.307 
9333.77    0.306 
9335.03    0.306 
9336.29    0.306 
9337.56    0.306 
9338.82    0.305 
9340.08    0.304 
9341.34    0.305 
9342.60    0.304 
9343.87    0.304 
9345.13    0.303 
9346.39    0.303 
9347.65    0.303 
9348.91    0.303 
9350.18    0.303 
9351.44    0.302 
9352.70    0.303 
9353.96    0.302 
9355.22    0.302 
9356.49    0.301 
9357.75    0.301 
9359.01    0.301 
9360.27    0.301 
9361.54    0.300 
9362.80    0.300 
9364.06    0.300 
9365.32    0.300 
9366.58    0.299 
9367.85    0.299 
9369.11    0.299 
9370.37    0.298 
9371.63    0.298 
9372.89    0.298 
9374.16    0.297 
9375.42    0.298 
9376.68    0.297 
9377.94    0.297 
9379.20    0.296 
9380.47    0.296 
9381.73    0.296 
9382.99    0.296 
9384.25    0.295 
9385.52    0.295 
9386.78    0.295 
9388.04    0.295 
9389.30    0.295 
9390.56    0.294 
9391.83    0.293 
9393.09    0.293 
9394.35    0.292 
9395.61    0.292 
9396.87    0.293 
9398.14    0.292 
9399.40    0.292 
9400.66    0.292 
9401.92    0.291 
9403.18    0.291 
9404.45    0.291 
9405.71    0.290 
9406.97    0.290 
9408.23    0.290 
9409.50    0.290 
9410.76    0.289 
9412.02    0.289 
9413.28    0.289 
9414.54    0.289 
9415.81    0.288 
9417.07    0.288 
9418.33    0.287 
9419.59    0.288 
9420.85    0.288 
9422.12    0.286 
9423.38    0.286 
9424.64    0.286 
9425.90    0.286 
9427.16    0.285 
9428.43    0.286 
9429.69    0.286 
9430.95    0.285 
9432.21    0.284 
9433.48    0.284 
9434.74    0.284 
9436.00    0.284 
9437.26    0.283 
9438.52    0.283 
9439.79    0.283 
9441.05    0.282 
9442.31    0.282 
9443.57    0.282 
9444.83    0.282 
9446.10    0.281 
9447.36    0.280 
9448.62    0.281 
9449.88    0.281 
9451.14    0.281 
9452.41    0.280 
9453.67    0.280 
9454.93    0.279 
9456.19    0.279 
9457.45    0.279 
9458.72    0.278 
9459.98    0.278 
9461.24    0.278 
9462.50    0.278 
9463.77    0.278 
9465.03    0.278 
9466.29    0.277 
9467.55    0.277 
9468.81    0.276 
9470.08    0.275 
9471.34    0.275 
9472.60    0.276 
9473.86    0.276 
9475.12    0.275 
9476.39    0.274 
9477.65    0.275 
9478.91    0.274 
9480.17    0.274 
9481.43    0.274 
9482.70    0.273 
9483.96    0.273 
9485.22    0.273 
9486.48    0.272 
9487.75    0.272 
9489.01    0.272 
9490.27    0.272 
9491.53    0.271 
9492.79    0.271 
9494.06    0.270 
9495.32    0.270 
9496.58    0.270 
9497.84    0.270 
9499.10    0.270 
9500.37    0.269 
9501.63    0.269 
9502.89    0.269 
9504.15    0.269 
9505.41    0.268 
9506.68    0.268 
9507.94    0.268 
9509.20    0.268 
9510.46    0.267 
9511.73    0.267 
9512.99    0.267 
9514.25    0.267 
9515.51    0.266 
9516.77    0.266 
9518.04    0.265 
9519.30    0.265 
9520.56    0.265 
9521.82    0.265 
9523.08    0.264 
9524.35    0.264 
9525.61    0.264 
9526.87    0.263 
9528.13    0.264 
9529.39    0.264 
9530.66    0.263 
9531.92    0.262 
9533.18    0.263 
9534.44    0.262 
9535.71    0.262 
9536.97    0.261 
9538.23    0.261 
9539.49    0.261 
9540.75    0.261 
9542.02    0.261 
9543.28    0.260 
9544.54    0.260 
9545.80    0.260 
9547.06    0.260 
9548.33    0.259 
9549.59    0.259 
9550.85    0.259 
9552.11    0.258 
9553.37    0.258 
9554.64    0.257 
9555.90    0.258 
9557.16    0.257 
9558.42    0.256 
9559.69    0.255 
9560.95    0.256 
9562.21    0.256 
9563.47    0.256 
9564.73    0.255 
9566.00    0.255 
9567.26    0.255 
9568.52    0.254 
9569.78    0.254 
9571.04    0.254 
9572.31    0.254 
9573.57    0.253 
9574.83    0.253 
9576.09    0.253 
9577.35    0.252 
9578.62    0.252 
9579.88    0.252 
9581.14    0.252 
9582.40    0.251 
9583.66    0.251 
9584.93    0.251 
9586.19    0.251 
9587.45    0.250 
9588.71    0.250 
9589.98    0.250 
9591.24    0.249 
9592.50    0.249 
9593.76    0.249 
9595.02    0.249 
9596.29    0.248 
9597.55    0.248 
9598.81    0.247 
9600.07    0.247 
9601.33    0.247 
9602.60    0.247 
9603.86    0.247 
9605.12    0.247 
9606.38    0.246 
9607.64    0.245 
9608.91    0.245 
9610.17    0.245 
9611.43    0.245 
9612.69    0.245 
9613.96    0.244 
9615.22    0.244 
9616.48    0.244 
9617.74    0.244 
9619.00    0.243 
9620.27    0.242 
9621.53    0.242 
9622.79    0.242 
9624.05    0.242 
9625.31    0.242 
9626.58    0.241 
9627.84    0.241 
9629.10    0.241 
9630.36    0.241 
9631.62    0.240 
9632.89    0.240 
9634.15    0.240 
9635.41    0.239 
9636.67    0.239 
9637.94    0.239 
9639.20    0.238 
9640.46    0.238 
9641.72    0.239 
9642.98    0.238 
9644.25    0.238 
9645.51    0.237 
9646.77    0.237 
9648.03    0.236 
9649.29    0.236 
9650.56    0.236 
9651.82    0.236 
9653.08    0.236 
9654.34    0.235 
9655.60    0.235 
9656.87    0.235 
9658.13    0.234 
9659.39    0.234 
9660.65    0.234 
9661.92    0.233 
9663.18    0.233 
9664.44    0.233 
9665.70    0.233 
9666.96    0.232 
9668.23    0.232 
9669.49    0.231 
9670.75    0.230 
9672.01    0.231 
9673.27    0.231 
9674.54    0.230 
9675.80    0.230 
9677.06    0.229 
9678.32    0.229 
9679.58    0.229 
9680.85    0.229 
9682.11    0.229 
9683.37    0.228 
9684.63    0.228 
9685.90    0.227 
9687.16    0.227 
9688.42    0.227 
9689.68    0.227 
9690.94    0.227 
9692.21    0.227 
9693.47    0.226 
9694.73    0.226 
9695.99    0.226 
9697.25    0.226 
9698.52    0.225 
9699.78    0.225 
9701.04    0.224 
9702.30    0.224 
9703.56    0.224 
9704.83    0.224 
9706.09    0.224 
9707.35    0.223 
9708.61    0.223 
9709.87    0.222 
9711.14    0.222 
9712.40    0.222 
9713.66    0.221 
9714.92    0.221 
9716.19    0.221 
9717.45    0.220 
9718.71    0.220 
9719.97    0.220 
9721.23    0.219 
9722.50    0.219 
9723.76    0.219 
9725.02    0.219 
9726.28    0.218 
9727.54    0.218 
9728.81    0.218 
9730.07    0.217 
9731.33    0.216 
9732.59    0.216 
9733.85    0.216 
9735.12    0.215 
9736.38    0.215 
9737.64    0.215 
9738.90    0.215 
9740.17    0.215 
9741.43    0.214 
9742.69    0.214 
9743.95    0.213 
9745.21    0.213 
9746.48    0.213 
9747.74    0.213 
9749.00    0.212 
9750.26    0.212 
9751.52    0.211 
9752.79    0.211 
9754.05    0.211 
9755.31    0.210 
9756.57    0.210 
9757.83    0.209 
9759.10    0.208 
9760.36    0.205 
10500	   0.0