# KPNO Mosaic U band from KP website http://www.noao.edu/kpno/mosaic/filters/k1001bp_jul04.txt
#      WAVELENGTH      THROUGHPUT
#       angstroms                
  3000.00     0.070
  3002.00     0.045
  3004.00    -0.015
  3006.00     0.045
  3008.00     0.085
  3010.00    -0.010
  3012.00     0.020
  3014.00     0.055
  3016.00     0.105
  3018.00     0.100
  3020.00     0.035
  3022.00     0.055
  3024.00     0.150
  3026.00     0.020
  3028.00     0.060
  3030.00     0.125
  3032.00     0.130
  3034.00     0.125
  3036.00     0.190
  3038.00     0.175
  3040.00     0.130
  3042.00     0.215
  3044.00     0.245
  3046.00     0.295
  3048.00     0.275
  3050.00     0.325
  3052.00     0.400
  3054.00     0.320
  3056.00     0.410
  3058.00     0.490
  3060.00     0.625
  3062.00     0.705
  3064.00     0.680
  3066.00     0.710
  3068.00     0.690
  3070.00     0.760
  3072.00     0.975
  3074.00     0.950
  3076.00     0.935
  3078.00     1.245
  3080.00     1.220
  3082.00     1.365
  3084.00     1.505
  3086.00     1.565
  3088.00     1.665
  3090.00     1.835
  3092.00     1.900
  3094.00     2.065
  3096.00     2.110
  3098.00     2.335
  3100.00     2.470
  3102.00     2.805
  3104.00     2.795
  3106.00     2.870
  3108.00     3.275
  3110.00     3.410
  3112.00     3.410
  3114.00     3.730
  3116.00     4.140
  3118.00     4.355
  3120.00     4.350
  3122.00     4.595
  3124.00     5.045
  3126.00     5.160
  3128.00     5.595
  3130.00     5.860
  3132.00     6.270
  3134.00     6.385
  3136.00     6.445
  3138.00     6.635
  3140.00     7.100
  3142.00     7.620
  3144.00     8.080
  3146.00     8.095
  3148.00     8.415
  3150.00     9.070
  3152.00     9.445
  3154.00     9.695
  3156.00     9.780
  3158.00    10.290
  3160.00    10.620
  3162.00    11.105
  3164.00    11.690
  3166.00    11.905
  3168.00    12.070
  3170.00    12.870
  3172.00    13.280
  3174.00    13.545
  3176.00    13.770
  3178.00    14.265
  3180.00    15.180
  3182.00    15.705
  3184.00    15.955
  3186.00    15.980
  3188.00    16.565
  3190.00    16.965
  3192.00    17.235
  3194.00    18.310
  3196.00    18.885
  3198.00    19.140
  3200.00    19.555
  3202.00    19.685
  3204.00    20.080
  3206.00    21.270
  3208.00    21.500
  3210.00    21.915
  3212.00    22.820
  3214.00    22.790
  3216.00    23.565
  3218.00    24.010
  3220.00    24.330
  3222.00    24.705
  3224.00    25.385
  3226.00    25.875
  3228.00    26.040
  3230.00    26.605
  3232.00    27.170
  3234.00    28.170
  3236.00    28.190
  3238.00    28.955
  3240.00    29.760
  3242.00    30.115
  3244.00    30.475
  3246.00    30.935
  3248.00    31.255
  3250.00    32.455
  3252.00    32.175
  3254.00    32.750
  3256.00    33.520
  3258.00    34.285
  3260.00    33.770
  3262.00    34.645
  3264.00    35.200
  3266.00    35.885
  3268.00    36.325
  3270.00    36.800
  3272.00    37.605
  3274.00    37.795
  3276.00    38.565
  3278.00    39.305
  3280.00    39.170
  3282.00    39.790
  3284.00    40.855
  3286.00    40.125
  3288.00    41.545
  3290.00    40.360
  3292.00    42.085
  3294.00    42.215
  3296.00    42.725
  3298.00    43.270
  3300.00    43.380
  3302.00    43.350
  3304.00    44.515
  3306.00    44.935
  3308.00    45.390
  3310.00    45.755
  3312.00    46.250
  3314.00    46.655
  3316.00    47.525
  3318.00    47.425
  3320.00    47.845
  3322.00    47.840
  3324.00    48.090
  3326.00    49.390
  3328.00    49.105
  3330.00    49.240
  3332.00    49.905
  3334.00    50.510
  3336.00    50.335
  3338.00    51.035
  3340.00    51.030
  3342.00    51.170
  3344.00    51.750
  3346.00    51.905
  3348.00    53.530
  3350.00    53.680
  3352.00    53.030
  3354.00    53.840
  3356.00    53.810
  3358.00    54.750
  3360.00    55.145
  3362.00    55.080
  3364.00    55.730
  3366.00    55.500
  3368.00    56.080
  3370.00    56.305
  3372.00    56.465
  3374.00    56.800
  3376.00    57.545
  3378.00    57.420
  3380.00    57.740
  3382.00    57.870
  3384.00    59.070
  3386.00    58.845
  3388.00    58.360
  3390.00    58.950
  3392.00    59.570
  3394.00    59.360
  3396.00    60.325
  3398.00    60.775
  3400.00    60.170
  3402.00    60.410
  3404.00    60.965
  3406.00    61.585
  3408.00    62.085
  3410.00    61.020
  3412.00    62.255
  3414.00    61.555
  3416.00    62.055
  3418.00    63.155
  3420.00    62.800
  3422.00    63.385
  3424.00    63.395
  3426.00    63.045
  3428.00    64.105
  3430.00    64.365
  3432.00    64.065
  3434.00    64.120
  3436.00    64.650
  3438.00    65.355
  3440.00    64.765
  3442.00    64.900
  3444.00    65.505
  3446.00    66.795
  3448.00    66.290
  3450.00    65.520
  3452.00    66.680
  3454.00    66.500
  3456.00    67.290
  3458.00    66.485
  3460.00    66.520
  3462.00    67.190
  3464.00    67.495
  3466.00    68.345
  3468.00    67.820
  3470.00    68.260
  3472.00    67.955
  3474.00    67.955
  3476.00    69.415
  3478.00    68.270
  3480.00    68.435
  3482.00    69.020
  3484.00    69.135
  3486.00    68.710
  3488.00    69.940
  3490.00    70.590
  3492.00    70.165
  3494.00    70.140
  3496.00    69.895
  3498.00    70.145
  3500.00    70.235
  3502.00    71.015
  3504.00    70.620
  3506.00    70.900
  3508.00    70.430
  3510.00    71.665
  3512.00    71.520
  3514.00    71.745
  3516.00    72.430
  3518.00    71.310
  3520.00    71.125
  3522.00    71.395
  3524.00    71.975
  3526.00    73.145
  3528.00    71.925
  3530.00    72.155
  3532.00    72.015
  3534.00    73.080
  3536.00    73.410
  3538.00    72.790
  3540.00    71.915
  3542.00    73.445
  3544.00    72.910
  3546.00    73.550
  3548.00    73.325
  3550.00    73.815
  3552.00    74.090
  3554.00    73.890
  3556.00    73.965
  3558.00    73.570
  3560.00    74.175
  3562.00    73.655
  3564.00    73.255
  3566.00    74.230
  3568.00    74.560
  3570.00    73.900
  3572.00    73.745
  3574.00    74.285
  3576.00    73.785
  3578.00    74.590
  3580.00    74.125
  3582.00    75.305
  3584.00    75.205
  3586.00    74.025
  3588.00    74.225
  3590.00    74.815
  3592.00    76.210
  3594.00    74.665
  3596.00    74.660
  3598.00    74.810
  3600.00    75.480
  3602.00    74.720
  3604.00    75.900
  3606.00    75.060
  3608.00    74.635
  3610.00    75.460
  3612.00    75.785
  3614.00    76.040
  3616.00    75.750
  3618.00    75.320
  3620.00    75.850
  3622.00    75.460
  3624.00    75.355
  3626.00    75.435
  3628.00    75.320
  3630.00    75.145
  3632.00    75.195
  3634.00    76.310
  3636.00    74.570
  3638.00    74.945
  3640.00    75.275
  3642.00    76.275
  3644.00    75.575
  3646.00    75.635
  3648.00    74.850
  3650.00    74.740
  3652.00    75.730
  3654.00    76.300
  3656.00    74.145
  3658.00    75.155
  3660.00    75.190
  3662.00    76.130
  3664.00    74.985
  3666.00    75.905
  3668.00    76.105
  3670.00    74.695
  3672.00    75.615
  3674.00    75.125
  3676.00    75.765
  3678.00    74.640
  3680.00    74.995
  3682.00    75.855
  3684.00    75.030
  3686.00    74.250
  3688.00    73.805
  3690.00    74.950
  3692.00    74.505
  3694.00    74.205
  3696.00    75.210
  3698.00    73.970
  3700.00    73.730
  3702.00    73.325
  3704.00    73.665
  3706.00    73.775
  3708.00    73.910
  3710.00    74.325
  3712.00    73.195
  3714.00    72.580
  3716.00    73.510
  3718.00    73.150
  3720.00    72.575
  3722.00    72.825
  3724.00    72.845
  3726.00    73.515
  3728.00    73.520
  3730.00    71.845
  3732.00    71.970
  3734.00    72.040
  3736.00    71.635
  3738.00    71.780
  3740.00    70.625
  3742.00    70.230
  3744.00    70.175
  3746.00    69.455
  3748.00    70.360
  3750.00    70.060
  3752.00    69.335
  3754.00    69.535
  3756.00    68.560
  3758.00    69.265
  3760.00    68.750
  3762.00    70.090
  3764.00    68.495
  3766.00    67.760
  3768.00    66.520
  3770.00    67.455
  3772.00    67.370
  3774.00    67.250
  3776.00    67.335
  3778.00    66.640
  3780.00    66.130
  3782.00    64.710
  3784.00    64.325
  3786.00    64.470
  3788.00    65.255
  3790.00    65.065
  3792.00    64.690
  3794.00    63.010
  3796.00    62.725
  3798.00    62.390
  3800.00    62.570
  3802.00    61.800
  3804.00    61.900
  3806.00    61.450
  3808.00    60.905
  3810.00    60.520
  3812.00    60.720
  3814.00    59.300
  3816.00    59.660
  3818.00    58.625
  3820.00    58.075
  3822.00    57.655
  3824.00    56.965
  3826.00    57.195
  3828.00    56.720
  3830.00    55.795
  3832.00    54.360
  3834.00    54.395
  3836.00    54.825
  3838.00    53.780
  3840.00    53.885
  3842.00    53.100
  3844.00    51.985
  3846.00    51.585
  3848.00    50.990
  3850.00    50.815
  3852.00    49.590
  3854.00    49.775
  3856.00    48.895
  3858.00    48.465
  3860.00    47.480
  3862.00    47.135
  3864.00    46.110
  3866.00    45.810
  3868.00    45.320
  3870.00    45.285
  3872.00    44.255
  3874.00    43.895
  3876.00    43.065
  3878.00    41.965
  3880.00    41.360
  3882.00    40.995
  3884.00    40.375
  3886.00    39.630
  3888.00    38.940
  3890.00    38.295
  3892.00    37.595
  3894.00    37.290
  3896.00    36.625
  3898.00    35.685
  3900.00    34.790
  3902.00    34.450
  3904.00    34.095
  3906.00    33.030
  3908.00    32.105
  3910.00    31.485
  3912.00    31.360
  3914.00    30.400
  3916.00    29.500
  3918.00    29.410
  3920.00    28.270
  3922.00    27.940
  3924.00    27.525
  3926.00    27.215
  3928.00    26.240
  3930.00    25.600
  3932.00    24.425
  3934.00    24.085
  3936.00    23.550
  3938.00    22.895
  3940.00    22.690
  3942.00    22.025
  3944.00    21.130
  3946.00    20.405
  3948.00    20.030
  3950.00    19.415
  3952.00    19.105
  3954.00    18.690
  3956.00    18.135
  3958.00    17.500
  3960.00    17.035
  3962.00    16.080
  3964.00    16.075
  3966.00    15.225
  3968.00    15.035
  3970.00    14.740
  3972.00    14.145
  3974.00    13.515
  3976.00    13.175
  3978.00    12.740
  3980.00    12.110
  3982.00    11.620
  3984.00    11.475
  3986.00    10.990
  3988.00    10.585
  3990.00    10.060
  3992.00     9.695
  3994.00     9.265
  3996.00     8.920
  3998.00     8.650
  4000.00     8.440
  4002.00     7.760
  4004.00     7.730
  4006.00     7.215
  4008.00     6.885
  4010.00     6.840
  4012.00     6.465
  4014.00     6.155
  4016.00     5.890
  4018.00     5.820
  4020.00     5.375
  4022.00     5.185
  4024.00     4.870
  4026.00     4.605
  4028.00     4.310
  4030.00     4.280
  4032.00     3.990
  4034.00     3.935
  4036.00     3.735
  4038.00     3.540
  4040.00     3.390
  4042.00     3.125
  4044.00     2.980
  4046.00     2.905
  4048.00     2.705
  4050.00     2.550
  4052.00     2.505
  4054.00     2.340
  4056.00     2.260
  4058.00     2.115
  4060.00     2.015
  4062.00     1.830
  4064.00     1.750
  4066.00     1.735
  4068.00     1.585
  4070.00     1.510
  4072.00     1.385
  4074.00     1.360
  4076.00     1.230
  4078.00     1.270
  4080.00     1.120
  4082.00     1.005
  4084.00     0.990
  4086.00     0.960
  4088.00     0.890
  4090.00     0.795
  4092.00     0.790
  4094.00     0.720
  4096.00     0.705
  4098.00     0.635
  4100.00     0.525
  4102.00     0.570
  4104.00     0.565
  4106.00     0.450
  4108.00     0.480
  4110.00     0.425
  4112.00     0.390
  4114.00     0.345
  4116.00     0.345
  4118.00     0.335
  4120.00     0.325
  4122.00     0.290
  4124.00     0.285
  4126.00     0.265
  4128.00     0.255
  4130.00     0.220
  4132.00     0.215
  4134.00     0.195
  4136.00     0.180
  4138.00     0.170
  4140.00     0.165
  4142.00     0.150
  4144.00     0.140
  4146.00     0.110
  4148.00     0.135
  4150.00     0.100
  4152.00     0.075
  4154.00     0.110
  4156.00     0.130
  4158.00     0.080
  4160.00     0.075
  4162.00     0.090
  4164.00     0.105
  4166.00     0.065
  4168.00     0.050
  4170.00     0.065
  4172.00     0.050
  4174.00     0.065
  4176.00     0.035
  4178.00     0.085
  4180.00     0.045
  4182.00     0.040
  4184.00     0.010
  4186.00     0.050
  4188.00     0.035
  4190.00     0.025
  4192.00     0.005
  4194.00     0.015
  4196.00     0.000
  4198.00    -0.015
  4200.00    -0.050
  4202.00    -0.015
  4204.00    -0.040
  4206.00    -0.005
  4208.00     0.050
  4210.00     0.015
  4212.00     0.035
  4214.00     0.000
  4216.00     0.000
  4218.00    -0.020
  4220.00     0.040
  4222.00    -0.010
  4224.00    -0.035
  4226.00    -0.005
  4228.00    -0.065
  4230.00    -0.025
  4232.00     0.060
  4234.00    -0.020
  4236.00    -0.005
  4238.00     0.000
  4240.00     0.035
  4242.00     0.055
  4244.00     0.075
  4246.00    -0.010
  4248.00     0.055
  4250.00     0.020
  4252.00    -0.025
  4254.00    -0.020
  4256.00     0.040
  4258.00     0.015
  4260.00     0.025
  4262.00     0.000
  4264.00     0.040
  4266.00     0.130
  4268.00     0.050
  4270.00     0.035
  4272.00     0.080
  4274.00    -0.010
  4276.00    -0.010
  4278.00     0.030
  4280.00     0.005
  4282.00    -0.025
  4284.00    -0.030
  4286.00    -0.040
  4288.00     0.045
  4290.00     0.045
  4292.00     0.060
  4294.00     0.005
  4296.00    -0.025
  4298.00    -0.015
  4300.00    -0.025
  4302.00    -0.025
  4304.00    -0.035
  4306.00     0.035
  4308.00     0.005
  4310.00    -0.015
  4312.00    -0.035
  4314.00     0.045
  4316.00     0.010
  4318.00    -0.005
  4320.00     0.000
  4322.00     0.010
  4324.00     0.050
  4326.00     0.010
  4328.00     0.060
  4330.00     0.060
  4332.00     0.030
  4334.00     0.015
  4336.00    -0.060
  4338.00     0.045
  4340.00    -0.020
  4342.00    -0.045
  4344.00     0.005
  4346.00     0.030
  4348.00     0.025
  4350.00    -0.030
  4352.00    -0.055
  4354.00     0.020
  4356.00     0.020
  4358.00     0.025
  4360.00    -0.040
  4362.00     0.005
  4364.00    -0.015
  4366.00     0.015
  4368.00     0.050
  4370.00     0.030
  4372.00     0.050
  4374.00     0.095
  4376.00    -0.005
  4378.00     0.020
  4380.00     0.055
  4382.00     0.040
  4384.00     0.025
  4386.00     0.025
  4388.00    -0.035
  4390.00     0.025
  4392.00     0.020
  4394.00    -0.005
  4396.00     0.005
  4398.00    -0.040
  4400.00     0.035
  4402.00    -0.050
  4404.00     0.015
  4406.00     0.060
  4408.00     0.035
  4410.00     0.000
  4412.00    -0.005
  4414.00     0.005
  4416.00     0.045
  4418.00    -0.030
  4420.00     0.020
  4422.00    -0.005
  4424.00     0.005
  4426.00    -0.020
  4428.00     0.030
  4430.00    -0.030
  4432.00     0.030
  4434.00     0.000
  4436.00    -0.030
  4438.00     0.010
  4440.00     0.010
  4442.00     0.015
  4444.00     0.010
  4446.00    -0.030
  4448.00     0.000
  4450.00     0.010
  4452.00    -0.020
  4454.00    -0.005
  4456.00    -0.030
  4458.00     0.020
  4460.00     0.025
  4462.00     0.020
  4464.00     0.005
  4466.00    -0.005
  4468.00     0.000
  4470.00    -0.005
  4472.00    -0.035
  4474.00     0.045
  4476.00     0.000
  4478.00     0.030
  4480.00     0.000
  4482.00    -0.005
  4484.00     0.015
  4486.00     0.020
  4488.00    -0.010
  4490.00     0.025
  4492.00    -0.015
  4494.00    -0.030
  4496.00    -0.010
  4498.00     0.010
  4500.00     0.020
